;;//         
;;// Intrinsic (un-reddened) AGN spectrum for 
;;//   log_{10}(L_bol/L_sun)   = 20.00 
;;//   log_{10}(L_bol/[erg/s]) = 53.59 
;;//     (throughout, L_sun is the bolometric solar L = 3.9x10^33 erg/s)  
;;// columns are frequency, AGN spectrum (nu*L_nu) in solar and CGS units :  
;;//   log_{10}(nu/Hz)   log_{10}(nu*L_nu/L_sun)  log_{10}(nu*L_nu/[erg/s])  
;;// the output frequency list spans ~300 microns to ~100 keV  
;;// the last four rows compute bands frequently adopted :  
;;//   nu = -1.00  ::  B-band (4400 Angstroms)  
;;//   nu = -2.00  ::  mid-IR (15 microns)  
;;//   nu = -3.00  ::  soft X-ray (integrated luminosity from 0.5-2 keV)  
;;//   nu = -4.00  ::  hard X-ray (integrated luminosity from 2-10  keV)  
;;//         
    12.00   17.13807   50.72914 
    12.02   17.17807   50.76914 
    12.04   17.21807   50.80914 
    12.06   17.25807   50.84914 
    12.08   17.29807   50.88914 
    12.10   17.33807   50.92914 
    12.12   17.37807   50.96914 
    12.14   17.41807   51.00914 
    12.16   17.45807   51.04914 
    12.18   17.49807   51.08914 
    12.20   17.53807   51.12914 
    12.22   17.57807   51.16914 
    12.24   17.61807   51.20914 
    12.26   17.65807   51.24914 
    12.28   17.69807   51.28914 
    12.30   17.73807   51.32914 
    12.32   17.77807   51.36914 
    12.34   17.81807   51.40914 
    12.36   17.85807   51.44914 
    12.38   17.89807   51.48914 
    12.40   17.93807   51.52914 
    12.42   17.97807   51.56914 
    12.44   18.01807   51.60914 
    12.46   18.05807   51.64914 
    12.48   18.09807   51.68914 
    12.50   18.13807   51.72914 
    12.52   18.18807   51.77914 
    12.54   18.24807   51.83914 
    12.56   18.29807   51.88914 
    12.58   18.34807   51.93914 
    12.60   18.39807   51.98914 
    12.62   18.44807   52.03914 
    12.64   18.48807   52.07914 
    12.66   18.52807   52.11914 
    12.68   18.56807   52.15914 
    12.70   18.60807   52.19914 
    12.72   18.63807   52.22914 
    12.74   18.66807   52.25914 
    12.76   18.69807   52.28914 
    12.78   18.71807   52.30914 
    12.80   18.74807   52.33914 
    12.82   18.76807   52.35914 
    12.84   18.78807   52.37914 
    12.86   18.80807   52.39914 
    12.88   18.82807   52.41914 
    12.90   18.84807   52.43914 
    12.92   18.86807   52.45914 
    12.94   18.88807   52.47914 
    12.96   18.90807   52.49914 
    12.98   18.91807   52.50914 
    13.00   18.93807   52.52914 
    13.02   18.94807   52.53914 
    13.04   18.96807   52.55914 
    13.06   18.97807   52.56914 
    13.08   18.98807   52.57914 
    13.10   18.99807   52.58914 
    13.12   19.00807   52.59914 
    13.14   19.01807   52.60914 
    13.16   19.02807   52.61914 
    13.18   19.03807   52.62914 
    13.20   19.04807   52.63914 
    13.22   19.05807   52.64914 
    13.24   19.05807   52.64914 
    13.26   19.06807   52.65914 
    13.28   19.07807   52.66914 
    13.30   19.08807   52.67914 
    13.32   19.08807   52.67914 
    13.34   19.09807   52.68914 
    13.36   19.09807   52.68914 
    13.38   19.10807   52.69914 
    13.40   19.10807   52.69914 
    13.42   19.11807   52.70914 
    13.44   19.12807   52.71914 
    13.46   19.12807   52.71914 
    13.48   19.12807   52.71914 
    13.50   19.13807   52.72914 
    13.52   19.13807   52.72914 
    13.54   19.13807   52.72914 
    13.56   19.14807   52.73914 
    13.58   19.14807   52.73914 
    13.60   19.14807   52.73914 
    13.62   19.14807   52.73914 
    13.64   19.15807   52.74914 
    13.66   19.15807   52.74914 
    13.68   19.15807   52.74914 
    13.70   19.15807   52.74914 
    13.72   19.15807   52.74914 
    13.74   19.15807   52.74914 
    13.76   19.15807   52.74914 
    13.78   19.15807   52.74914 
    13.80   19.15807   52.74914 
    13.82   19.14807   52.73914 
    13.84   19.14807   52.73914 
    13.86   19.14807   52.73914 
    13.88   19.14807   52.73914 
    13.90   19.14807   52.73914 
    13.92   19.14807   52.73914 
    13.94   19.13807   52.72914 
    13.96   19.13807   52.72914 
    13.98   19.12807   52.71914 
    14.00   19.12807   52.71914 
    14.02   19.11807   52.70914 
    14.04   19.10807   52.69914 
    14.06   19.09807   52.68914 
    14.08   19.08807   52.67914 
    14.10   19.07807   52.66914 
    14.12   19.05807   52.64914 
    14.14   19.04807   52.63914 
    14.16   19.02807   52.61914 
    14.18   19.00807   52.59914 
    14.20   18.98807   52.57914 
    14.22   18.96807   52.55914 
    14.24   18.93807   52.52914 
    14.26   18.91807   52.50914 
    14.28   18.89807   52.48914 
    14.30   18.87807   52.46914 
    14.32   18.86807   52.45914 
    14.34   18.85807   52.44914 
    14.36   18.85807   52.44914 
    14.38   18.85807   52.44914 
    14.40   18.85807   52.44914 
    14.42   18.86807   52.45914 
    14.44   18.86807   52.45914 
    14.46   18.87807   52.46914 
    14.48   18.88807   52.47914 
    14.50   18.89807   52.48914 
    14.52   18.90807   52.49914 
    14.54   18.92807   52.51914 
    14.56   18.93807   52.52914 
    14.58   18.93440   52.52546 
    14.60   18.95215   52.54322 
    14.62   18.93616   52.52723 
    14.64   18.96749   52.55856 
    14.66   19.55388   53.14494 
    14.68   18.98609   52.57715 
    14.70   19.00305   52.59411 
    14.72   19.01092   52.60198 
    14.74   19.02807   52.61913 
    14.76   19.08107   52.67213 
    14.78   19.12844   52.71950 
    14.80   19.12894   52.72001 
    14.82   19.17989   52.77095 
    14.84   19.23552   52.82658 
    14.86   19.15092   52.74198 
    14.88   19.17950   52.77056 
    14.90   19.19950   52.79056 
    14.92   19.22616   52.81723 
    14.94   19.26935   52.86042 
    14.96   19.29139   52.88245 
    14.98   19.29844   52.88950 
    15.00   19.30509   52.89616 
    15.02   19.35842   52.94949 
    15.04   19.36515   52.95622 
    15.06   19.34893   52.93999 
    15.08   19.38028   52.97134 
    15.10   19.36376   52.95483 
    15.12   19.34749   52.93856 
    15.14   19.35339   52.94445 
    15.16   19.39087   52.98193 
    15.18   19.38184   52.97290 
    15.20   19.51768   53.10874 
    15.22   19.42106   53.01212 
    15.24   19.43559   53.02666 
    15.26   19.47997   53.07103 
    15.28   19.52239   53.11346 
    15.30   19.47609   53.06716 
    15.32   19.44735   53.03841 
    15.34   19.50135   53.09242 
    15.36   19.57989   53.17095 
    15.38   19.73841   53.32947 
    15.40   19.65435   53.24541 
    15.42   19.43347   53.02454 
    15.44   19.44712   53.03818 
    15.46   19.60482   53.19589 
    15.48   19.43154   53.02260 
    15.50   19.38807   52.97914 
    15.52   19.34807   52.93914 
    15.54   19.31807   52.90914 
    15.56   19.29807   52.88914 
    15.58   19.26807   52.85914 
    15.60   19.25807   52.84914 
    15.62   19.23807   52.82914 
    15.64   19.21807   52.80914 
    15.66   19.20807   52.79914 
    15.68   19.18807   52.77914 
    15.70   19.16807   52.75914 
    15.72   19.14807   52.73914 
    15.74   19.12807   52.71914 
    15.76   19.10807   52.69914 
    15.78   19.08299   52.67406 
    15.80   19.01546   52.60652 
    15.82   18.94792   52.53899 
    15.84   18.88039   52.47145 
    15.86   18.81285   52.40392 
    15.88   18.74532   52.33639 
    15.90   18.67779   52.26885 
    15.92   18.61025   52.20132 
    15.94   18.54272   52.13378 
    15.96   18.47518   52.06625 
    15.98   18.40765   51.99871 
    16.00   18.34011   51.93118 
    16.02   18.27258   51.86365 
    16.04   18.20505   51.79611 
    16.06   18.13751   51.72858 
    16.08   18.06998   51.66104 
    16.10   18.00244   51.59351 
    16.12   17.93491   51.52597 
    16.14   17.86737   51.45844 
    16.16   17.79984   51.39090 
    16.18   17.73231   51.32337 
    16.20   17.66477   51.25584 
    16.22   17.59724   51.18830 
    16.24   17.52970   51.12077 
    16.26   17.46217   51.05323 
    16.28   17.39463   50.98570 
    16.30   17.32710   50.91816 
    16.32   17.25957   50.85063 
    16.34   17.19203   50.78310 
    16.36   17.12450   50.71556 
    16.38   17.05696   50.64803 
    16.40   16.98943   50.58049 
    16.42   16.92189   50.51296 
    16.44   16.85436   50.44542 
    16.46   16.78683   50.37789 
    16.48   16.71929   50.31036 
    16.50   16.65176   50.24282 
    16.52   16.58422   50.17529 
    16.54   16.51669   50.10775 
    16.56   16.44915   50.04022 
    16.58   16.38162   49.97268 
    16.60   16.31409   49.90515 
    16.62   16.24655   49.83762 
    16.64   16.17902   49.77008 
    16.66   16.11148   49.70255 
    16.68   16.04395   49.63501 
    16.70   15.97641   49.56748 
    16.72   15.90888   49.49994 
    16.74   15.84134   49.43241 
    16.76   15.77381   49.36488 
    16.78   15.71392   49.30499 
    16.80   15.71792   49.30899 
    16.82   15.72192   49.31299 
    16.84   15.72582   49.31689 
    16.86   15.72982   49.32089 
    16.88   15.73382   49.32489 
    16.90   15.73782   49.32889 
    16.92   15.74182   49.33289 
    16.94   15.74582   49.33689 
    16.96   15.74982   49.34089 
    16.98   15.75382   49.34489 
    17.00   15.75782   49.34889 
    17.02   15.76182   49.35289 
    17.04   15.76582   49.35689 
    17.06   15.76982   49.36089 
    17.08   15.77392   49.36499 
    17.10   15.77792   49.36899 
    17.12   15.78162   49.37269 
    17.14   15.78562   49.37669 
    17.16   15.78962   49.38069 
    17.18   15.79362   49.38469 
    17.20   15.79762   49.38869 
    17.22   15.80162   49.39269 
    17.24   15.80562   49.39669 
    17.26   15.80962   49.40069 
    17.28   15.81362   49.40469 
    17.30   15.81762   49.40869 
    17.32   15.82152   49.41259 
    17.34   15.82552   49.41659 
    17.36   15.82952   49.42059 
    17.38   15.83362   49.42469 
    17.40   15.83762   49.42869 
    17.42   15.84162   49.43269 
    17.44   15.84572   49.43679 
    17.46   15.84972   49.44079 
    17.48   15.85382   49.44489 
    17.50   15.85782   49.44889 
    17.52   15.86192   49.45299 
    17.54   15.86602   49.45709 
    17.56   15.87012   49.46119 
    17.58   15.87422   49.46529 
    17.60   15.87832   49.46939 
    17.62   15.88252   49.47359 
    17.64   15.88672   49.47779 
    17.66   15.89072   49.48179 
    17.68   15.89492   49.48599 
    17.70   15.89922   49.49029 
    17.72   15.90352   49.49459 
    17.74   15.90792   49.49899 
    17.76   15.91232   49.50339 
    17.78   15.91632   49.50739 
    17.80   15.92082   49.51189 
    17.82   15.92532   49.51639 
    17.84   15.93002   49.52109 
    17.86   15.93472   49.52579 
    17.88   15.93962   49.53069 
    17.90   15.94442   49.53549 
    17.92   15.94952   49.54059 
    17.94   15.95472   49.54579 
    17.96   15.96012   49.55119 
    17.98   15.96572   49.55679 
    18.00   15.97112   49.56219 
    18.02   15.97702   49.56809 
    18.04   15.98322   49.57429 
    18.06   15.98962   49.58069 
    18.08   15.99632   49.58739 
    18.10   16.00332   49.59439 
    18.12   16.01062   49.60169 
    18.14   16.01832   49.60939 
    18.16   16.02592   49.61699 
    18.18   16.03412   49.62519 
    18.20   16.04272   49.63379 
    18.22   16.05162   49.64269 
    18.24   16.03682   49.62789 
    18.26   16.04442   49.63549 
    18.28   16.05222   49.64329 
    18.30   16.05972   49.65079 
    18.32   16.06742   49.65849 
    18.34   16.07602   49.66709 
    18.36   16.08492   49.67599 
    18.38   16.09472   49.68579 
    18.40   16.10552   49.69659 
    18.42   16.11802   49.70909 
    18.44   16.13192   49.72299 
    18.46   16.14572   49.73679 
    18.48   16.15942   49.75049 
    18.50   16.17422   49.76529 
    18.52   16.19022   49.78129 
    18.54   16.20752   49.79859 
    18.56   16.22592   49.81699 
    18.58   16.24512   49.83619 
    18.60   16.26482   49.85589 
    18.62   16.28432   49.87539 
    18.64   16.30342   49.89449 
    18.66   16.32162   49.91269 
    18.68   16.33872   49.92979 
    18.70   16.35452   49.94559 
    18.72   16.36892   49.95999 
    18.74   16.38192   49.97299 
    18.76   16.39352   49.98459 
    18.78   16.40392   49.99499 
    18.80   16.41302   50.00409 
    18.82   16.42092   50.01199 
    18.84   16.42782   50.01889 
    18.86   16.43382   50.02489 
    18.88   16.43902   50.03009 
    18.90   16.44332   50.03439 
    18.92   16.44702   50.03809 
    18.94   16.45002   50.04109 
    18.96   16.45252   50.04359 
    18.98   16.45442   50.04549 
    19.00   16.45582   50.04689 
    19.02   16.45672   50.04779 
    19.04   16.45692   50.04799 
    19.06   16.45662   50.04769 
    19.08   16.45602   50.04709 
    19.10   16.45502   50.04609 
    19.12   16.45382   50.04489 
    19.14   16.45222   50.04329 
    19.16   16.45032   50.04139 
    19.18   16.44812   50.03919 
    19.20   16.44572   50.03679 
    19.22   16.44302   50.03409 
    19.24   16.44002   50.03109 
    19.26   16.43682   50.02789 
    19.28   16.43342   50.02449 
    19.30   16.42972   50.02079 
    19.32   16.42572   50.01679 
    19.34   16.42152   50.01259 
    19.36   16.41702   50.00809 
    19.38   16.41222   50.00329 
    19.40   16.40702   49.99809 
    -1.00   19.16811   52.75917 
    -2.00   19.08807   52.67914 
    -3.00   15.97969   49.57075 
    -4.00   16.19696   49.78803 
